#ndep: 2892
#lat lon: -28 140
#depth (km)     Vp (km/s)
    0.000      2.559533E+00
    1.000      4.018020E+00
    2.000      5.021463E+00
    3.000      5.665201E+00
    4.000      6.034736E+00
    5.000      6.205725E+00
    6.000      6.243990E+00
    7.000      6.205511E+00
    8.000      6.136426E+00
    9.000      6.073036E+00
   10.000      6.041800E+00
   11.000      6.059337E+00
   12.000      6.132423E+00
   13.000      6.257996E+00
   14.000      6.423150E+00
   15.000      6.605134E+00
   16.000      6.490063E+00
   17.000      6.486546E+00
   18.000      6.555171E+00
   19.000      6.670108E+00
   20.000      6.809193E+00
   21.000      6.953930E+00
   22.000      7.089484E+00
   23.000      7.204690E+00
   24.000      7.292045E+00
   25.000      7.347714E+00
   26.000      7.371526E+00
   27.000      7.366975E+00
   28.000      7.341223E+00
   29.000      7.305094E+00
   30.000      7.273081E+00
   31.000      7.263339E+00
   32.000      7.297691E+00
   33.000      7.401624E+00
   34.000      7.604292E+00
   35.000      7.938512E+00
   36.000      7.960969E+00
   37.000      7.960597E+00
   38.000      7.960241E+00
   39.000      7.959903E+00
   40.000      7.959582E+00
   41.000      7.959279E+00
   42.000      7.958994E+00
   43.000      7.958728E+00
   44.000      7.958481E+00
   45.000      7.958253E+00
   46.000      7.958045E+00
   47.000      7.957856E+00
   48.000      7.957688E+00
   49.000      7.957540E+00
   50.000      7.957413E+00
   51.000      7.957307E+00
   52.000      7.957223E+00
   53.000      7.957160E+00
   54.000      7.957119E+00
   55.000      7.957101E+00
   56.000      7.957106E+00
   57.000      7.957134E+00
   58.000      7.957185E+00
   59.000      7.957259E+00
   60.000      7.957358E+00
   61.000      7.957481E+00
   62.000      7.957629E+00
   63.000      7.957801E+00
   64.000      7.957999E+00
   65.000      7.958222E+00
   66.000      7.958471E+00
   67.000      7.958747E+00
   68.000      7.959048E+00
   69.000      7.959377E+00
   70.000      7.959733E+00
   71.000      7.960115E+00
   72.000      7.960526E+00
   73.000      7.960965E+00
   74.000      7.961432E+00
   75.000      7.961927E+00
   76.000      7.962451E+00
   77.000      7.963005E+00
   78.000      7.963588E+00
   79.000      7.964200E+00
   80.000      7.964843E+00
   81.000      7.965516E+00
   82.000      7.966220E+00
   83.000      7.966955E+00
   84.000      7.967720E+00
   85.000      7.968518E+00
   86.000      7.969347E+00
   87.000      7.970208E+00
   88.000      7.971107E+00
   89.000      7.972040E+00
   90.000      7.973006E+00
   91.000      7.974005E+00
   92.000      7.975038E+00
   93.000      7.976104E+00
   94.000      7.977203E+00
   95.000      7.978336E+00
   96.000      7.979501E+00
   97.000      7.980698E+00
   98.000      7.981927E+00
   99.000      7.983188E+00
  100.000      7.984481E+00
  101.000      7.985806E+00
  102.000      7.987165E+00
  103.000      7.988558E+00
  104.000      7.989986E+00
  105.000      7.991447E+00
  106.000      7.992943E+00
  107.000      7.994474E+00
  108.000      7.996040E+00
  109.000      7.997642E+00
  110.000      7.999280E+00
  111.000      8.000955E+00
  112.000      8.002666E+00
  113.000      8.004414E+00
  114.000      8.006200E+00
  115.000      8.008023E+00
  116.000      8.009885E+00
  117.000      8.011785E+00
  118.000      8.013723E+00
  119.000      8.015699E+00
  120.000      8.017729E+00
  121.000      8.019706E+00
  122.000      8.021725E+00
  123.000      8.023789E+00
  124.000      8.025894E+00
  125.000      8.028043E+00
  126.000      8.030233E+00
  127.000      8.032465E+00
  128.000      8.034739E+00
  129.000      8.037054E+00
  130.000      8.039409E+00
  131.000      8.041806E+00
  132.000      8.044242E+00
  133.000      8.046719E+00
  134.000      8.049235E+00
  135.000      8.051790E+00
  136.000      8.054384E+00
  137.000      8.057017E+00
  138.000      8.059688E+00
  139.000      8.062397E+00
  140.000      8.065143E+00
  141.000      8.067927E+00
  142.000      8.070748E+00
  143.000      8.073606E+00
  144.000      8.076499E+00
  145.000      8.079429E+00
  146.000      8.082394E+00
  147.000      8.085395E+00
  148.000      8.088431E+00
  149.000      8.091501E+00
  150.000      8.094606E+00
  151.000      8.097744E+00
  152.000      8.100916E+00
  153.000      8.104122E+00
  154.000      8.107360E+00
  155.000      8.110631E+00
  156.000      8.113934E+00
  157.000      8.117269E+00
  158.000      8.120636E+00
  159.000      8.124033E+00
  160.000      8.127462E+00
  161.000      8.130921E+00
  162.000      8.134411E+00
  163.000      8.137930E+00
  164.000      8.141479E+00
  165.000      8.145056E+00
  166.000      8.148663E+00
  167.000      8.152298E+00
  168.000      8.155961E+00
  169.000      8.159652E+00
  170.000      8.163370E+00
  171.000      8.167116E+00
  172.000      8.170883E+00
  173.000      8.174670E+00
  174.000      8.178477E+00
  175.000      8.182305E+00
  176.000      8.186151E+00
  177.000      8.190017E+00
  178.000      8.193901E+00
  179.000      8.197803E+00
  180.000      8.201723E+00
  181.000      8.205660E+00
  182.000      8.209613E+00
  183.000      8.213582E+00
  184.000      8.217566E+00
  185.000      8.221565E+00
  186.000      8.225579E+00
  187.000      8.229605E+00
  188.000      8.233645E+00
  189.000      8.237697E+00
  190.000      8.241760E+00
  191.000      8.245835E+00
  192.000      8.249919E+00
  193.000      8.254012E+00
  194.000      8.258115E+00
  195.000      8.262224E+00
  196.000      8.266341E+00
  197.000      8.270464E+00
  198.000      8.274593E+00
  199.000      8.278725E+00
  200.000      8.282862E+00
  201.000      8.287001E+00
  202.000      8.291141E+00
  203.000      8.295283E+00
  204.000      8.299424E+00
  205.000      8.303565E+00
  206.000      8.307703E+00
  207.000      8.311838E+00
  208.000      8.315969E+00
  209.000      8.320094E+00
  210.000      8.324213E+00
  211.000      8.328325E+00
  212.000      8.332429E+00
  213.000      8.336522E+00
  214.000      8.340605E+00
  215.000      8.344676E+00
  216.000      8.348734E+00
  217.000      8.352777E+00
  218.000      8.356805E+00
  219.000      8.360816E+00
  220.000      8.364809E+00
  221.000      8.369281E+00
  222.000      8.373247E+00
  223.000      8.377162E+00
  224.000      8.381027E+00
  225.000      8.384846E+00
  226.000      8.388619E+00
  227.000      8.392351E+00
  228.000      8.396043E+00
  229.000      8.399697E+00
  230.000      8.403317E+00
  231.000      8.406903E+00
  232.000      8.410458E+00
  233.000      8.413985E+00
  234.000      8.417485E+00
  235.000      8.420960E+00
  236.000      8.424412E+00
  237.000      8.427843E+00
  238.000      8.431256E+00
  239.000      8.434651E+00
  240.000      8.438030E+00
  241.000      8.441395E+00
  242.000      8.444749E+00
  243.000      8.448091E+00
  244.000      8.451425E+00
  245.000      8.454751E+00
  246.000      8.458070E+00
  247.000      8.461385E+00
  248.000      8.464696E+00
  249.000      8.468005E+00
  250.000      8.471313E+00
  251.000      8.474622E+00
  252.000      8.477931E+00
  253.000      8.481243E+00
  254.000      8.484559E+00
  255.000      8.487878E+00
  256.000      8.491203E+00
  257.000      8.494534E+00
  258.000      8.497873E+00
  259.000      8.501219E+00
  260.000      8.504573E+00
  261.000      8.507937E+00
  262.000      8.511310E+00
  263.000      8.514694E+00
  264.000      8.518088E+00
  265.000      8.521494E+00
  266.000      8.524912E+00
  267.000      8.528342E+00
  268.000      8.531784E+00
  269.000      8.535238E+00
  270.000      8.538706E+00
  271.000      8.542187E+00
  272.000      8.545681E+00
  273.000      8.549188E+00
  274.000      8.552708E+00
  275.000      8.556242E+00
  276.000      8.559788E+00
  277.000      8.563348E+00
  278.000      8.566920E+00
  279.000      8.570505E+00
  280.000      8.574102E+00
  281.000      8.577711E+00
  282.000      8.581331E+00
  283.000      8.584962E+00
  284.000      8.588604E+00
  285.000      8.592256E+00
  286.000      8.595917E+00
  287.000      8.599587E+00
  288.000      8.603265E+00
  289.000      8.606950E+00
  290.000      8.610641E+00
  291.000      8.614339E+00
  292.000      8.618040E+00
  293.000      8.621746E+00
  294.000      8.625454E+00
  295.000      8.629164E+00
  296.000      8.632874E+00
  297.000      8.636584E+00
  298.000      8.640292E+00
  299.000      8.643997E+00
  300.000      8.647697E+00
  301.000      8.651392E+00
  302.000      8.655079E+00
  303.000      8.658758E+00
  304.000      8.662427E+00
  305.000      8.666084E+00
  306.000      8.669727E+00
  307.000      8.673356E+00
  308.000      8.676967E+00
  309.000      8.680561E+00
  310.000      8.684134E+00
  311.000      8.687684E+00
  312.000      8.691211E+00
  313.000      8.694711E+00
  314.000      8.698184E+00
  315.000      8.701626E+00
  316.000      8.705126E+00
  317.000      8.708620E+00
  318.000      8.712109E+00
  319.000      8.715591E+00
  320.000      8.719066E+00
  321.000      8.722533E+00
  322.000      8.725991E+00
  323.000      8.729440E+00
  324.000      8.732879E+00
  325.000      8.736306E+00
  326.000      8.739722E+00
  327.000      8.743127E+00
  328.000      8.746518E+00
  329.000      8.749896E+00
  330.000      8.753260E+00
  331.000      8.756610E+00
  332.000      8.759945E+00
  333.000      8.763265E+00
  334.000      8.766568E+00
  335.000      8.769855E+00
  336.000      8.773125E+00
  337.000      8.776378E+00
  338.000      8.779613E+00
  339.000      8.782830E+00
  340.000      8.786028E+00
  341.000      8.789208E+00
  342.000      8.792368E+00
  343.000      8.795509E+00
  344.000      8.798630E+00
  345.000      8.801730E+00
  346.000      8.804811E+00
  347.000      8.807871E+00
  348.000      8.810909E+00
  349.000      8.813927E+00
  350.000      8.816924E+00
  351.000      8.819899E+00
  352.000      8.822852E+00
  353.000      8.825784E+00
  354.000      8.828694E+00
  355.000      8.831582E+00
  356.000      8.834448E+00
  357.000      8.837292E+00
  358.000      8.840114E+00
  359.000      8.842913E+00
  360.000      8.845691E+00
  361.000      8.848447E+00
  362.000      8.851180E+00
  363.000      8.853892E+00
  364.000      8.856582E+00
  365.000      8.859250E+00
  366.000      8.861896E+00
  367.000      8.864521E+00
  368.000      8.867124E+00
  369.000      8.869707E+00
  370.000      8.872268E+00
  371.000      8.874808E+00
  372.000      8.877328E+00
  373.000      8.879828E+00
  374.000      8.882307E+00
  375.000      8.884767E+00
  376.000      8.887208E+00
  377.000      8.889629E+00
  378.000      8.892032E+00
  379.000      8.894416E+00
  380.000      8.896782E+00
  381.000      8.899131E+00
  382.000      8.901463E+00
  383.000      8.903778E+00
  384.000      8.906076E+00
  385.000      8.908359E+00
  386.000      8.910627E+00
  387.000      8.912880E+00
  388.000      8.915118E+00
  389.000      8.917343E+00
  390.000      8.919555E+00
  391.000      8.921755E+00
  392.000      8.923943E+00
  393.000      8.926119E+00
  394.000      8.928285E+00
  395.000      8.930441E+00
  396.000      8.932588E+00
  397.000      8.934727E+00
  398.000      8.936858E+00
  399.000      8.938982E+00
  400.000      8.941099E+00
  401.000      8.943211E+00
  402.000      8.945319E+00
  403.000      8.947423E+00
  404.000      8.949524E+00
  405.000      8.951622E+00
  406.000      8.953720E+00
  407.000      8.955818E+00
  408.000      8.957916E+00
  409.000      8.960015E+00
  410.000      9.221802E+00
  411.000      9.226851E+00
  412.000      9.231886E+00
  413.000      9.236907E+00
  414.000      9.241913E+00
  415.000      9.246906E+00
  416.000      9.251884E+00
  417.000      9.256850E+00
  418.000      9.261802E+00
  419.000      9.266740E+00
  420.000      9.271666E+00
  421.000      9.276579E+00
  422.000      9.281479E+00
  423.000      9.286367E+00
  424.000      9.291242E+00
  425.000      9.296105E+00
  426.000      9.300957E+00
  427.000      9.305796E+00
  428.000      9.310624E+00
  429.000      9.315441E+00
  430.000      9.320247E+00
  431.000      9.325041E+00
  432.000      9.329825E+00
  433.000      9.334598E+00
  434.000      9.339361E+00
  435.000      9.344113E+00
  436.000      9.348856E+00
  437.000      9.353588E+00
  438.000      9.358311E+00
  439.000      9.363024E+00
  440.000      9.367729E+00
  441.000      9.372424E+00
  442.000      9.377110E+00
  443.000      9.381787E+00
  444.000      9.386456E+00
  445.000      9.391117E+00
  446.000      9.395769E+00
  447.000      9.400414E+00
  448.000      9.405051E+00
  449.000      9.409680E+00
  450.000      9.414302E+00
  451.000      9.418917E+00
  452.000      9.423525E+00
  453.000      9.428127E+00
  454.000      9.432722E+00
  455.000      9.437310E+00
  456.000      9.441893E+00
  457.000      9.446469E+00
  458.000      9.451040E+00
  459.000      9.455605E+00
  460.000      9.460165E+00
  461.000      9.464721E+00
  462.000      9.469271E+00
  463.000      9.473816E+00
  464.000      9.478357E+00
  465.000      9.482894E+00
  466.000      9.487427E+00
  467.000      9.491956E+00
  468.000      9.496481E+00
  469.000      9.501003E+00
  470.000      9.505522E+00
  471.000      9.510038E+00
  472.000      9.514551E+00
  473.000      9.519062E+00
  474.000      9.523570E+00
  475.000      9.528076E+00
  476.000      9.532581E+00
  477.000      9.537083E+00
  478.000      9.541584E+00
  479.000      9.546084E+00
  480.000      9.550583E+00
  481.000      9.555081E+00
  482.000      9.559579E+00
  483.000      9.564076E+00
  484.000      9.568573E+00
  485.000      9.573071E+00
  486.000      9.577568E+00
  487.000      9.582066E+00
  488.000      9.586565E+00
  489.000      9.591065E+00
  490.000      9.595566E+00
  491.000      9.600069E+00
  492.000      9.604573E+00
  493.000      9.609079E+00
  494.000      9.613588E+00
  495.000      9.618098E+00
  496.000      9.622612E+00
  497.000      9.627128E+00
  498.000      9.631647E+00
  499.000      9.636169E+00
  500.000      9.640695E+00
  501.000      9.645225E+00
  502.000      9.649759E+00
  503.000      9.654297E+00
  504.000      9.658840E+00
  505.000      9.663387E+00
  506.000      9.667938E+00
  507.000      9.672494E+00
  508.000      9.677054E+00
  509.000      9.681617E+00
  510.000      9.686185E+00
  511.000      9.690756E+00
  512.000      9.695331E+00
  513.000      9.699911E+00
  514.000      9.704494E+00
  515.000      9.709081E+00
  516.000      9.713671E+00
  517.000      9.718266E+00
  518.000      9.722865E+00
  519.000      9.727467E+00
  520.000      9.732073E+00
  521.000      9.736683E+00
  522.000      9.741297E+00
  523.000      9.745914E+00
  524.000      9.750535E+00
  525.000      9.755160E+00
  526.000      9.759789E+00
  527.000      9.764421E+00
  528.000      9.769057E+00
  529.000      9.773697E+00
  530.000      9.778340E+00
  531.000      9.782987E+00
  532.000      9.787638E+00
  533.000      9.792292E+00
  534.000      9.796950E+00
  535.000      9.801611E+00
  536.000      9.806276E+00
  537.000      9.810945E+00
  538.000      9.815617E+00
  539.000      9.820292E+00
  540.000      9.824971E+00
  541.000      9.829653E+00
  542.000      9.834339E+00
  543.000      9.839028E+00
  544.000      9.843721E+00
  545.000      9.848417E+00
  546.000      9.853116E+00
  547.000      9.857819E+00
  548.000      9.862525E+00
  549.000      9.867235E+00
  550.000      9.871947E+00
  551.000      9.876663E+00
  552.000      9.881382E+00
  553.000      9.886104E+00
  554.000      9.890830E+00
  555.000      9.895559E+00
  556.000      9.900290E+00
  557.000      9.905025E+00
  558.000      9.909763E+00
  559.000      9.914504E+00
  560.000      9.919249E+00
  561.000      9.923996E+00
  562.000      9.928746E+00
  563.000      9.933499E+00
  564.000      9.938255E+00
  565.000      9.943014E+00
  566.000      9.947776E+00
  567.000      9.952541E+00
  568.000      9.957309E+00
  569.000      9.962080E+00
  570.000      9.966853E+00
  571.000      9.971629E+00
  572.000      9.976408E+00
  573.000      9.981190E+00
  574.000      9.985974E+00
  575.000      9.990761E+00
  576.000      9.995551E+00
  577.000      1.000034E+01
  578.000      1.000514E+01
  579.000      1.000994E+01
  580.000      1.001474E+01
  581.000      1.001954E+01
  582.000      1.002434E+01
  583.000      1.002915E+01
  584.000      1.003396E+01
  585.000      1.003877E+01
  586.000      1.004359E+01
  587.000      1.004840E+01
  588.000      1.005322E+01
  589.000      1.005804E+01
  590.000      1.006287E+01
  591.000      1.006769E+01
  592.000      1.007252E+01
  593.000      1.007735E+01
  594.000      1.008218E+01
  595.000      1.008702E+01
  596.000      1.009186E+01
  597.000      1.009669E+01
  598.000      1.010153E+01
  599.000      1.010638E+01
  600.000      1.011126E+01
  601.000      1.011607E+01
  602.000      1.012090E+01
  603.000      1.012572E+01
  604.000      1.013055E+01
  605.000      1.013538E+01
  606.000      1.014022E+01
  607.000      1.014505E+01
  608.000      1.014989E+01
  609.000      1.015473E+01
  610.000      1.015956E+01
  611.000      1.016440E+01
  612.000      1.016923E+01
  613.000      1.017407E+01
  614.000      1.017890E+01
  615.000      1.018374E+01
  616.000      1.018857E+01
  617.000      1.019339E+01
  618.000      1.019822E+01
  619.000      1.020305E+01
  620.000      1.020787E+01
  621.000      1.021269E+01
  622.000      1.021751E+01
  623.000      1.022233E+01
  624.000      1.022714E+01
  625.000      1.023196E+01
  626.000      1.023677E+01
  627.000      1.024158E+01
  628.000      1.024639E+01
  629.000      1.025120E+01
  630.000      1.025601E+01
  631.000      1.026082E+01
  632.000      1.026564E+01
  633.000      1.027045E+01
  634.000      1.027526E+01
  635.000      1.028008E+01
  636.000      1.028490E+01
  637.000      1.028973E+01
  638.000      1.029456E+01
  639.000      1.029939E+01
  640.000      1.030423E+01
  641.000      1.030908E+01
  642.000      1.031394E+01
  643.000      1.031880E+01
  644.000      1.032367E+01
  645.000      1.032856E+01
  646.000      1.033345E+01
  647.000      1.033836E+01
  648.000      1.034328E+01
  649.000      1.034822E+01
  650.000      1.035318E+01
  651.000      1.084379E+01
  652.000      1.084319E+01
  653.000      1.084289E+01
  654.000      1.084288E+01
  655.000      1.084313E+01
  656.000      1.084364E+01
  657.000      1.084438E+01
  658.000      1.084533E+01
  659.000      1.084649E+01
  660.000      1.084783E+01
  661.000      1.084935E+01
  662.000      1.085102E+01
  663.000      1.085284E+01
  664.000      1.085479E+01
  665.000      1.085686E+01
  666.000      1.085903E+01
  667.000      1.086130E+01
  668.000      1.086366E+01
  669.000      1.086609E+01
  670.000      1.086858E+01
  671.000      1.087112E+01
  672.000      1.087371E+01
  673.000      1.087634E+01
  674.000      1.087900E+01
  675.000      1.088168E+01
  676.000      1.088437E+01
  677.000      1.088707E+01
  678.000      1.088977E+01
  679.000      1.089248E+01
  680.000      1.089517E+01
  681.000      1.089785E+01
  682.000      1.090051E+01
  683.000      1.090316E+01
  684.000      1.090578E+01
  685.000      1.090838E+01
  686.000      1.091096E+01
  687.000      1.091350E+01
  688.000      1.091602E+01
  689.000      1.091851E+01
  690.000      1.092098E+01
  691.000      1.092341E+01
  692.000      1.092583E+01
  693.000      1.092821E+01
  694.000      1.093058E+01
  695.000      1.093293E+01
  696.000      1.093526E+01
  697.000      1.093759E+01
  698.000      1.093990E+01
  699.000      1.094222E+01
  700.000      1.094454E+01
  701.000      1.094687E+01
  702.000      1.094922E+01
  703.000      1.095159E+01
  704.000      1.095399E+01
  705.000      1.095643E+01
  706.000      1.095892E+01
  707.000      1.096146E+01
  708.000      1.096408E+01
  709.000      1.096677E+01
  710.000      1.096955E+01
  711.000      1.097226E+01
